315 312 469 466 467 462 308 129 133 160 156 145 173 423 171 167 170 138 134 163 160 460 457 454 339 454 344 349 351 353
386 364 370 353 366 373 371 380 369 370 380 384 374 375 379 375 379 381 376 380 370 352 367 382 374 371 367 354 369 379
454 451 398 445 180 396 178 202 203 146 264 176 145 161 172 256 144 302 303 295 299 255 243 255 143 136 302 295 274 297
365 380 384 371 368 388 390 391 395 263 323 321 391 332 391 390 334 331 330 328 330 323 335 387 390 337 342 452 399 392
522 521 520 521 520 518 517 515 517 518 516 517 518 516 517 515 516 514 513 515 516 515 513 514 513 511 513 514 516 515
451 350 345 344 346 355 354 349 346 351 448 447 401 400 452 343 348 363 386 361 363 361 358 360 365 381 372 385 371 370
384 371 388 392 394 395 282 207 281 271 274 294 256 300 297 274 272 206 269 304 266 146 203 269 275 229 209 276 227 229
324 328 324 322 319 320 337 386 381 365 360 341 343 337 389 387 333 334 383 336 387 386 389 333 387 391 389 391 388 385
180 177 266 307 306 304 307 287 280 278 277 272 273 296 270 267 259 174 197 414 418 197 411 158 153 190 405 407 406 193
320 323 312 310 461 313 311 310 459 315 319 318 154 402 154 321 319 315 318 321 394 395 394 393 150 179 203 149 181 445
373 374 379 365 364 362 358 361 366 356 346 348 452 342 453 150 451 447 446 445 449 445 442 439 442 184 182 188 184 190
369 385 387 332 385 390 324 394 262 148 149 147 265 147 177 146 269 304 258 267 266 205 203 202 439 434 432 431 433 438
408 194 152 147 144 143 303 140 254 243 244 299 254 246 251 252 253 248 249 250 141 257 136 293 256 144 303 140 144 302
307 323 394 395 264 322 310 459 155 308 311 315 460 158 163 161 414 420 424 423 197 199 172 421 423 197 414 162 160 462
428 426 199 419 421 168 165 164 172 421 425 243 245 425 428 427 426 431 199 424 419 417 416 414 416 421 198 423 198 194
464 463 159 413 162 164 138 132 137 305 130 129 135 305 129 128 124 468 462 464 466 463 163 161 163 134 139 135 129 291
11 14 12 15 14 17 21 18 24 21 18 15 18 16 20 24 21 22 21 25 29 24 21 24 20 19 21 27 22 26
14 20 21 23 19 23 22 21 23 28 24 29 34 32 34 30 28 33 27 23 29 28 32 37 36 37 38 33 28 31
466 467 127 128 465 467 469 466 127 130 127 465 467 312 323 326 310 461 260 308 305 260 265 264 260 309 322 321 394 321
346 345 344 347 348 340 335 389 336 340 317 335 389 388 371 373 369 372 375 368 380 374 377 375 378 379 365 368 366 365
24 21 15 13 19 16 21 23 24 25 28 32 30 35 30 33 28 30 32 30 28 24 27 32 34 38 36 35 39 35
520 518 517 516 517 516 517 518 517 519 521 520 523 525 527 528 530 528 525 528 526 529 527 524 521 520 518 519 521 520
302 140 257 301 295 255 137 305 302 143 161 411 408 404 193 194 191 194 201 431 239 203 176 190 194 201 239 240 239 241
146 266 305 292 257 254 251 253 255 136 143 145 146 175 178 150 393 339 337 335 390 320 322 324 394 324 391 397 391 390
140 135 129 128 129 462 466 467 464 466 467 465 462 157 461 313 316 314 459 156 459 462 309 319 339 316 330 326 327 323
303 304 291 303 306 289 125 124 468 309 308 305 267 303 256 258 307 290 131 127 464 462 468 466 470 469 465 462 130 462
204 233 207 206 271 276 273 235 439 202 436 434 235 434 437 238 437 436 235 269 207 210 229 232 235 439 442 181 398 395
195 191 149 186 185 444 441 234 235 234 202 235 233 275 229 210 226 223 220 221 220 223 225 224 227 276 279 268 278 294
201 200 428 424 427 246 248 246 243 254 255 140 254 299 300 256 254 248 254 255 252 251 248 253 301 253 299 300 296 302
1 2 0 2 1 3 0 3 1 0 2 1 0 2 5 6 4 1 2 0 1 0 2 3 0 1 0 3 5 3
215 217 216 218 221 218 219 218 221 223 225 223 221 223 222 224 223 224 225 226 228 226 228 225 224 223 224 226 225 223
226 210 211 210 212 209 231 230 208 210 213 210 211 214 213 210 207 269 204 207 206 203 435 432 429 428 200 172 257 145
318 456 314 317 320 332 383 384 388 371 369 363 382 384 371 388 391 388 387 385 374 379 373 383 380 370 372 373 381 386
17 14 15 17 22 26 27 32 35 33 27 24 23 27 22 26 23 28 27 30 31 36 35 31 30 33 28 26 20 24
443 182 187 402 154 460 457 454 402 401 400 453 151 147 149 183 401 149 180 204 175 149 148 260 175 235 233 235 240 244
514 512 511 513 511 513 515 517 516 515 516 515 517 515 516 518 516 515 516 518 516 515 516 517 515 513 511 513 515 514
12 14 15 12 9 10 8 10 9 10 8 6 8 11 9 8 5 8 7 6 3 1 3 4 2 4 7 10 11 9
291 132 135 129 286 287 283 395 263 266 288 285 283 391 393 395 399 396 393 339 454 456 455 151 155 156 174 197 173 174
447 182 402 453 340 359 358 359 357 362 355 363 368 373 385 366 385 332 334 383 364 365 371 381 379 375 379 368 370 380
390 339 454 401 398 182 398 399 178 177 204 442 179 184 446 447 444 446 448 450 344 349 353 351 354 370 352 349 346 357
228 206 207 268 272 228 206 273 267 303 270 295 298 301 293 136 290 132 131 465 126 289 306 292 304 290 288 290 305 259
535 533 532 530 527 530 533 532 529 532 533 530 528 529 526 527 525 528 525 528 526 529 528 525 527 525 526 527 529 530
94 91 87 89 90 91 89 84 90 92 86 82 77 82 83 77 74 76 81 78 75 69 64 67 65 59 49 56 61 57
452 342 344 341 336 337 360 341 340 336 387 383 336 334 339 343 452 403 186 402 186 187 190 192 193 187 186 188 184 185
192 195 428 199 172 174 173 243 249 247 254 252 253 299 248 249 251 299 254 246 250 253 297 253 251 253 248 251 247 244
450 347 343 340 345 342 456 154 261 145 257 258 267 270 295 292 290 133 128 125 126 129 124 465 128 130 307 305 293 294
160 145 147 155 264 266 177 269 268 276 209 212 211 209 211 213 210 211 212 211 210 212 214 213 210 207 233 235 434 438
492 494 493 494 492 494 495 494 495 497 499 498 500 501 500 499 501 502 501 503 502 500 502 501 499 500 501 500 502 504
512 511 510 509 511 510 508 506 505 503 504 503 502 504 503 501 499 498 500 502 500 502 501 503 502 504 505 507 505 504
21 17 20 25 26 31 27 28 33 36 37 36 35 31 26 25 30 32 29 25 19 21 19 18 17 12 15 20 14 15
321 317 337 360 365 369 378 374 372 366 363 360 337 333 334 335 338 360 361 358 356 354 363 364 388 386 384 381 366 355
331 330 327 328 326 262 324 262 265 270 271 273 302 140 143 302 254 299 297 274 269 206 271 281 208 231 209 228 206 204
367 363 354 357 356 366 385 382 333 332 387 336 334 339 336 391 390 384 333 389 388 364 386 389 333 334 332 386 368 373
77 73 69 64 63 68 71 68 62 57 53 51 49 57 58 61 57 63 61 58 60 63 69 66 69 65 59 53 55 51
403 401 152 458 459 156 161 172 199 201 146 175 264 147 156 153 404 457 155 150 152 404 454 402 454 455 453 341 453 454
355 353 366 353 350 353 350 451 343 337 333 389 394 322 154 153 458 151 190 153 459 154 261 155 459 462 467 463 308 310
420 424 420 418 422 419 417 415 412 413 412 411 412 162 165 419 418 166 161 166 167 166 160 260 156 458 456 317 154 149
366 356 346 451 453 343 452 453 451 346 350 345 358 357 346 349 354 356 358 360 365 384 368 380 366 354 356 363 365 366
283 282 280 277 209 231 230 232 234 236 242 236 240 296 270 266 175 200 191 194 197 408 193 188 189 186 150 398 351 398
22 25 22 17 12 10 7 9 8 9 12 9 7 10 11 8 5 2 3 2 3 4 3 1 4 5 2 5 8 11
429 426 245 427 199 172 174 173 171 144 199 195 199 194 200 195 193 191 199 171 142 139 255 140 303 255 247 250 252 247
460 157 156 146 203 175 199 195 196 423 197 194 152 404 403 150 151 402 182 452 182 184 447 347 449 447 444 180 205 236
131 126 463 462 312 327 331 328 329 332 329 327 331 332 338 332 387 335 337 340 336 333 332 385 364 370 373 375 382 383
347 350 352 350 346 355 363 368 367 364 365 362 357 364 365 370 352 347 349 348 346 345 348 357 362 356 345 453 456 314
255 294 279 281 279 277 280 267 272 268 209 208 207 268 273 267 269 304 293 290 132 291 306 267 265 270 276 270 275 268
350 449 350 347 348 346 356 362 361 383 336 337 340 390 388 382 361 365 379 377 378 369 365 382 360 334 333 338 321 324
548 547 546 543 547 544 545 546 543 540 539 538 536 534 535 533 531 532 531 532 533 530 529 528 527 524 527 530 532 534
293 257 255 136 303 259 265 268 208 206 234 202 234 440 444 179 202 200 195 190 186 185 188 436 431 241 236 205 267 270
93 96 92 96 97 100 102 105 103 101 104 103 106 107 108 106 109 112 109 108 105 106 105 108 111 112 111 110 107 105
489 490 492 491 490 491 492 493 492 493 495 493 492 491 493 491 489 490 488 489 491 490 489 488 490 489 488 489 487 488
528 530 527 525 527 526 528 530 532 530 528 529 528 527 529 526 528 526 524 525 526 528 527 525 524 522 524 522 523 525
515 517 519 520 522 521 522 521 523 521 519 518 520 521 523 521 520 521 523 525 527 528 525 526 527 526 528 530 528 526
40 36 33 35 37 31 30 24 26 23 26 28 24 25 26 28 33 35 36 30 35 33 29 27 30 29 31 37 36 41
453 343 453 456 454 339 317 455 453 345 452 345 342 339 454 404 455 403 406 403 189 186 189 190 149 152 148 151 401 404
434 435 437 433 431 437 441 234 237 434 429 427 430 434 241 245 425 247 253 298 301 295 303 139 142 255 293 295 293 291
58 57 60 63 59 49 59 65 66 62 65 63 69 65 68 71 70 69 71 68 64 68 70 71 65 67 71 66 60 61
136 143 302 301 257 304 269 268 177 235 239 173 199 173 144 145 147 202 438 179 234 439 234 203 200 203 235 205 180 203
547 545 544 543 546 542 539 538 541 543 544 542 539 542 544 541 539 541 544 541 539 542 541 542 545 546 543 544 543 540
196 194 188 185 183 447 183 185 444 399 183 149 400 451 447 183 187 402 343 455 403 153 402 186 192 194 152 404 153 156
363 369 378 372 373 375 376 377 378 372 374 384 375 383 387 388 364 389 383 333 335 321 320 321 324 394 398 182 451 349
381 383 331 332 329 326 285 306 286 285 282 286 282 286 326 286 285 324 332 389 384 367 369 373 366 364 383 331 320 337
96 91 96 94 91 88 85 82 83 86 90 88 92 87 85 83 86 87 88 91 88 83 82 77 73 69 74 71 76 74
338 340 338 340 338 320 339 334 336 388 386 333 389 333 338 341 337 390 386 387 335 317 320 318 314 459 310 327 328 327
81 85 86 88 89 93 96 95 96 91 89 93 95 91 87 90 85 89 93 88 93 94 96 97 95 96 92 90 87 81
524 527 528 525 524 527 530 532 529 526 528 529 531 533 535 537 536 538 541 538 537 534 532 533 532 533 531 532 531 532
387 335 387 386 388 336 391 332 384 390 334 360 359 340 341 359 360 357 358 359 356 355 356 354 369 370 366 354 370 367
419 172 145 173 422 425 242 240 238 244 427 246 242 428 429 430 242 427 428 434 437 442 439 435 239 435 188 436 440 442
345 340 334 390 391 390 320 321 263 282 285 323 308 311 313 311 319 326 262 259 133 304 269 205 206 178 146 264 175 199
216 217 215 214 215 218 216 219 222 219 218 221 223 225 227 225 223 224 225 227 229 210 228 227 226 228 210 226 223 225
292 278 294 274 268 263 265 396 148 260 305 292 289 291 258 267 270 294 278 274 277 276 228 210 229 227 225 223 226 224
79 84 87 90 93 88 87 81 80 82 88 89 91 90 92 91 87 83 88 82 81 83 89 84 83 88 85 84 82 83
98 97 98 97 94 89 83 88 91 92 91 94 95 92 90 94 90 89 85 79 81 75 73 71 67 61 57 62 60 58
263 147 155 460 463 127 466 468 469 465 462 459 458 158 160 156 158 412 413 411 412 162 412 409 414 197 173 195 428 424
30 34 37 31 37 34 36 37 34 31 32 34 31 36 38 35 32 28 23 26 21 26 23 28 31 26 20 16 19 15
127 467 461 313 460 315 320 390 387 389 364 382 379 368 366 381 380 376 377 374 372 375 379 375 382 366 353 370 352 363
246 244 249 247 242 428 242 247 242 236 438 440 441 444 450 444 179 178 180 183 189 187 403 406 403 453 345 343 455 457
92 87 83 85 81 79 85 86 92 94 92 95 92 89 92 88 82 88 83 78 84 89 86 90 87 92 94 91 93 94
275 278 277 281 267 205 271 206 207 396 397 391 394 320 330 328 330 319 312 461 130 132 136 290 131 464 467 312 467 466
266 270 272 278 272 278 293 304 289 285 288 290 135 138 139 141 255 252 248 254 247 245 243 142 247 300 256 303 140 257
344 400 447 450 449 399 180 205 236 438 234 441 234 441 439 235 239 202 201 173 198 174 177 174 176 150 177 179 205 177
541 539 537 536 535 536 537 534 532 533 532 533 530 528 529 528 526 525 523 521 519 517 519 521 523 524 525 523 524 521
375 378 373 368 383 373 379 376 375 377 379 380 381 367 381 373 382 379 365 385 372 369 385 367 353 366 352 349 351 349
505 506 505 506 508 510 508 509 507 506 504 503 502 504 502 500 501 503 504 506 504 505 507 509 508 510 512 511 510 512
252 250 247 241 434 429 433 430 426 249 426 247 249 250 252 248 249 245 246 171 421 168 169 164 158 164 161 160 460 457
83 79 75 69 68 69 70 75 70 75 69 63 60 65 59 61 62 65 67 72 71 72 74 68 66 64 58 59 63 68
72 74 73 72 77 73 74 71 72 67 69 70 69 75 69 66 68 62 63 69 71 77 79 76 72 71 73 77 82 88
251 250 254 142 145 266 177 266 144 303 259 133 291 303 136 143 302 297 295 270 267 280 271 270 276 209 271 270 296 297
9 10 11 16 17 15 19 16 13 12 11 13 10 11 16 12 15 18 22 20 16 13 19 18 24 28 30 28 26 20
78 83 82 81 83 80 77 75 71 76 80 81 80 75 78 72 69 66 61 67 65 64 62 66 60 61 62 57 55 54
144 304 307 129 126 289 125 130 132 289 128 124 470 467 470 469 465 467 468 470 473 472 475 472 471 472 473 476 479 478
494 495 492 495 496 498 497 496 495 492 491 492 491 490 491 489 487 485 484 483 486 484 483 484 483 485 482 485 487 485
423 425 421 424 420 198 423 199 242 434 241 240 245 246 171 142 141 169 140 302 303 140 135 140 141 172 164 167 168 422
506 505 506 504 506 508 507 508 506 504 503 505 504 503 504 503 504 505 504 505 506 508 510 508 506 507 509 511 510 509
84 83 85 87 89 90 88 85 79 76 78 84 78 75 79 85 89 84 79 78 77 74 78 75 74 73 78 74 70 71
122 125 124 465 127 123 126 470 472 475 477 475 473 472 469 312 313 314 461 130 463 308 462 467 470 468 462 466 463 311
187 183 179 203 205 206 233 269 177 235 179 178 204 438 436 431 434 237 236 235 175 200 145 175 177 234 440 438 434 437
404 190 151 454 455 452 401 399 395 389 386 382 366 356 363 361 367 354 367 368 367 354 349 354 348 349 352 370 380 382
467 469 468 466 465 469 312 318 457 454 342 456 316 338 343 347 447 444 185 191 185 191 193 189 404 186 184 180 439 179
397 181 148 401 149 153 155 459 318 319 317 319 321 319 327 331 327 331 383 382 333 335 330 331 327 328 325 330 335 321
76 72 69 74 79 73 70 66 63 62 57 54 52 54 52 49 48 50 52 53 50 51 48 46 48 47 45 42 43 41
470 471 472 475 476 473 474 473 470 471 474 473 474 476 474 473 470 471 470 126 463 126 129 124 468 309 130 305 133 138
326 309 468 127 123 122 123 124 123 120 123 126 127 133 139 136 292 257 137 163 161 143 258 267 279 288 305 132 138 143
427 244 299 252 254 298 254 302 301 299 254 253 301 298 299 296 297 294 274 294 278 292 279 268 266 270 295 274 271 277
243 254 255 141 253 255 247 299 298 295 274 276 268 273 267 281 208 207 265 205 269 207 268 206 269 258 136 302 297 295
95 96 94 91 88 93 95 92 95 93 90 84 80 84 88 90 93 90 88 93 89 91 94 90 86 92 96 97 98 97
310 307 285 282 265 264 395 283 324 323 317 154 456 454 456 318 321 335 333 389 340 336 317 337 363 337 361 333 361 363
430 426 171 246 171 170 256 301 297 253 255 303 267 303 140 170 140 254 256 300 296 294 255 254 250 248 243 300 301 257
329 330 326 308 460 313 312 313 311 309 322 394 320 338 321 335 334 335 317 315 320 316 339 336 339 320 319 326 330 326
351 448 451 449 446 182 181 179 235 435 439 187 189 186 150 398 397 399 447 449 351 347 352 351 352 389 339 337 320 334
208 207 233 231 234 232 231 233 237 234 201 198 421 424 419 420 197 423 421 171 424 427 431 428 423 195 432 427 243 248
436 202 200 238 237 236 205 268 269 270 303 139 134 164 143 138 134 129 134 137 143 256 139 133 308 262 260 306 261 321
73 72 69 73 78 76 71 74 76 74 69 65 68 73 78 77 79 78 74 75 74 76 78 82 76 78 83 77 72 71
379 369 378 377 380 381 385 368 388 368 380 370 352 349 351 451 401 399 183 401 187 186 183 450 344 342 340 389 390 393
469 311 319 314 456 458 457 459 319 311 463 309 127 465 128 129 286 282 268 265 282 287 306 136 130 290 129 463 311 459
507 506 504 506 504 503 504 506 505 504 505 504 506 508 510 511 510 509 508 509 510 511 513 515 516 518 516 514 512 510
501 502 504 502 501 500 502 501 502 500 502 501 502 500 501 499 497 499 498 500 502 501 502 501 502 500 502 500 501 503
181 396 148 146 258 142 141 254 300 252 249 245 244 246 244 254 302 301 293 301 254 253 301 300 295 292 289 290 293 257
124 123 128 124 127 463 308 323 394 320 394 323 317 321 319 318 460 157 153 404 186 150 393 336 388 371 367 386 332 330
164 159 464 131 463 460 160 161 411 197 410 408 194 193 195 194 201 204 181 204 177 175 177 148 155 156 261 155 261 461
237 203 146 262 266 145 160 158 460 155 261 155 261 306 129 127 467 462 129 133 137 164 167 162 412 162 158 459 456 315
259 303 257 303 259 146 262 306 131 132 134 138 140 256 296 294 302 295 294 297 294 291 293 279 269 304 291 132 128 133
438 202 174 172 257 141 136 293 302 304 258 173 426 199 175 147 261 156 158 155 308 305 266 261 259 261 265 148 178 150
143 161 165 421 420 422 421 171 168 421 169 164 143 303 259 267 266 146 149 153 458 158 412 410 196 419 414 162 165 161
7 9 11 10 12 13 11 13 18 17 21 23 27 33 31 32 36 39 41 43 41 39 34 36 39 37 36 30 27 26
8 11 10 7 5 2 3 1 3 4 2 4 5 2 1 0 2 3 0 2 3 0 2 3 2 5 4 2 4 2
174 259 261 264 151 264 155 264 148 178 147 157 155 459 311 460 318 456 317 456 154 151 176 187 176 149 183 180 178 203
389 390 384 387 386 390 337 361 367 372 385 389 367 371 368 381 383 375 377 380 373 367 371 388 382 369 366 364 366 372
372 375 374 379 368 370 367 370 369 380 381 364 357 360 340 339 454 456 458 455 339 335 337 334 337 333 386 332 385 336
499 497 495 496 495 492 490 492 491 489 487 486 484 482 479 477 478 475 474 475 474 477 474 476 477 476 477 480 483 480
439 188 185 182 148 175 173 171 144 172 199 175 174 176 177 268 263 394 322 310 261 157 458 459 310 462 461 313 316 334
536 534 531 532 534 533 534 536 535 533 531 529 527 526 527 530 529 532 534 533 531 529 532 529 527 525 524 523 522 523
34 30 27 30 33 30 29 23 24 28 31 32 26 25 30 25 20 18 24 22 17 11 14 18 22 27 26 21 27 22
267 287 306 287 290 305 308 307 287 284 287 284 287 262 287 279 277 276 279 271 294 302 304 289 291 305 259 157 309 323
491 492 491 489 490 488 489 490 489 487 485 486 483 480 483 480 481 478 480 479 477 474 477 478 481 480 479 477 478 476
4 2 3 2 3 6 3 4 7 10 8 10 13 12 13 17 12 16 18 23 20 14 19 24 27 30 26 32 33 37
327 326 310 460 459 461 460 318 457 315 460 311 310 157 154 156 146 175 269 268 206 271 277 228 210 226 223 226 224 225
150 183 149 187 176 173 426 429 426 249 250 248 244 426 425 247 244 247 248 299 295 303 301 257 144 143 139 142 137 256
193 200 192 186 150 398 394 263 260 261 322 459 159 461 312 462 467 312 469 468 124 123 121 122 121 123 124 128 465 463
474 475 477 478 479 482 480 477 479 478 481 480 483 485 484 486 483 482 485 483 484 486 483 486 485 486 487 485 483 484
265 204 439 435 202 178 150 179 203 176 191 404 406 403 186 188 187 192 197 422 424 422 417 414 162 158 161 411 161 145
417 416 418 417 421 170 169 140 170 141 142 143 172 171 246 249 425 427 246 242 245 240 239 201 242 199 432 195 197 173
513 515 514 515 516 517 519 521 519 521 523 522 524 523 522 523 521 520 522 524 522 523 525 528 525 528 525 526 524 521
437 439 436 439 444 440 444 187 184 182 185 183 182 184 179 205 206 203 146 173 199 197 408 409 410 412 413 166 413 165
359 361 366 385 374 369 364 359 362 365 385 370 352 351 349 356 355 350 355 349 354 350 349 354 364 362 368 372 369 381
111 113 115 118 116 119 122 124 129 308 155 308 305 302 144 239 242 425 250 254 253 141 253 301 294 256 141 137 257 144
152 149 147 261 306 262 265 178 207 209 281 287 262 283 286 288 292 288 307 310 463 160 145 200 196 193 198 171 198 197
527 528 527 525 526 524 523 522 523 521 523 521 523 524 527 526 524 522 523 520 523 525 523 522 523 520 523 524 525 524
368 373 372 375 379 365 360 341 317 334 331 334 339 390 337 334 336 341 344 346 345 343 346 351 354 357 349 351 352 348
415 420 421 172 171 172 173 200 194 153 156 147 175 144 171 143 170 165 169 166 413 162 159 160 134 132 306 303 293 305
449 183 150 398 396 181 204 205 271 205 231 272 275 233 232 205 270 268 279 281 271 280 281 271 296 299 296 297 298 297
236 204 179 439 188 192 186 191 195 200 176 187 149 190 188 185 184 181 444 185 189 188 191 202 204 180 179 150 154 321
74 68 62 64 62 59 62 66 71 69 68 64 59 58 56 53 50 54 57 60 62 60 49 51 52 56 59 58 62 61
316 337 341 336 383 361 364 336 383 384 388 392 387 390 332 320 325 324 285 326 308 157 161 159 160 133 132 127 309 312
89 90 92 86 91 95 97 98 100 101 104 102 99 101 98 96 95 93 91 86 80 76 81 85 86 82 85 80 83 77
402 400 451 453 150 181 178 399 395 263 284 281 287 282 281 278 280 288 292 290 307 133 307 310 307 266 305 133 134 131
279 270 269 275 272 232 205 234 434 439 442 445 442 202 434 432 430 241 244 242 428 434 201 198 419 415 414 409 197 174
241 247 254 302 254 246 242 173 200 176 152 458 460 160 164 158 161 164 160 463 466 464 461 160 260 259 308 322 261 265
406 408 404 190 195 194 201 435 437 432 435 433 432 428 423 428 195 423 171 143 257 256 296 271 281 209 228 231 234 179
400 445 446 448 452 399 396 180 204 202 235 201 242 245 248 299 298 297 299 252 246 426 242 201 146 265 262 264 394 398
256 141 254 301 253 250 251 253 255 142 247 246 244 254 302 292 303 301 296 299 297 302 294 270 304 133 132 307 129 291
103 104 103 104 101 100 97 94 97 100 98 95 92 88 89 86 80 74 73 67 69 68 74 80 85 81 85 87 86 91
462 461 464 467 469 466 462 308 459 156 261 154 149 148 265 269 281 268 281 280 287 285 287 282 268 205 265 270 294 301
481 482 484 486 485 484 481 480 478 479 477 474 476 473 472 469 472 474 472 471 473 471 472 470 466 468 466 127 463 133
269 304 303 301 254 246 427 432 200 145 142 255 143 161 157 145 143 145 176 178 396 178 176 150 452 344 346 357 363 356
334 337 336 341 454 151 149 401 181 187 404 192 195 199 426 431 199 198 173 422 197 415 412 410 413 162 159 413 410 408
99 101 99 100 98 100 97 95 92 91 95 92 90 86 91 85 91 88 85 89 90 88 89 92 95 97 100 99 98 99
162 414 422 171 167 163 413 158 159 164 134 163 161 166 168 169 142 254 256 258 144 174 143 137 132 305 135 136 290 128
224 221 223 224 223 222 225 223 222 224 226 224 222 224 221 222 219 222 225 226 224 221 223 222 223 226 225 224 221 218
483 482 481 482 484 481 483 481 479 477 474 472 474 475 476 479 476 474 472 471 468 471 469 311 315 313 318 311 310 311
277 267 287 281 285 289 292 290 129 288 290 291 257 144 142 145 147 152 404 191 196 419 165 172 141 172 423 197 194 410
120 122 123 120 121 120 121 120 121 118 117 114 117 119 121 122 120 121 119 118 119 121 124 471 470 467 463 127 468 464
53 56 49 46 44 42 43 46 47 45 43 42 40 42 45 47 44 41 39 37 31 34 37 31 35 38 37 32 28 29
333 386 337 316 312 469 472 474 471 470 124 127 128 125 130 308 306 261 321 335 321 317 340 343 337 334 383 336 364 357
166 163 164 167 137 164 165 422 416 417 420 417 422 170 171 425 426 249 246 248 249 246 251 252 250 249 246 248 253 251
46 44 41 36 38 39 35 41 36 38 33 35 37 34 29 24 23 22 17 15 13 14 15 19 14 13 10 12 9 12
343 454 455 317 335 323 320 330 316 334 316 322 154 150 154 150 400 401 152 153 458 157 458 156 154 459 309 462 459 153
393 399 183 184 442 444 180 444 439 435 235 438 201 431 434 236 240 244 427 429 428 432 238 234 204 207 271 209 268 209
172 143 164 138 135 130 129 134 139 256 301 303 144 199 432 238 437 438 234 231 207 269 268 269 233 207 268 276 278 276
33 36 40 36 41 36 38 39 41 40 35 41 40 41 44 42 39 40 42 45 42 40 37 36 37 35 37 39 38 35
23 21 27 21 26 30 28 34 35 40 35 30 24 18 20 25 21 24 19 13 16 20 16 19 22 28 27 23 27 24
190 202 177 148 177 178 396 399 444 187 152 264 151 404 403 454 453 401 404 153 157 459 313 461 458 151 454 341 359 337
284 286 125 286 289 129 291 133 289 129 289 129 306 287 286 129 288 281 285 263 268 275 206 231 228 209 210 211 208 205
304 290 129 289 304 290 133 136 305 135 134 164 138 170 139 141 256 259 145 156 152 154 155 260 265 148 152 187 150 178
69 63 62 58 54 51 50 49 55 53 59 62 66 69 63 61 64 67 65 63 67 61 59 56 52 53 54 58 61 65
3 6 8 9 7 5 4 2 0 3 1 3 2 3 4 6 3 4 5 4 3 6 5 6 9 7 10 7 9 8
135 139 143 302 303 293 256 257 291 136 139 136 257 143 170 256 143 259 174 191 196 419 165 421 168 421 424 425 249 425
378 374 375 378 374 380 370 364 354 370 372 375 383 375 382 379 380 377 375 373 374 369 364 369 364 354 357 362 364 384
496 494 496 495 494 492 490 489 491 490 491 493 492 494 492 495 496 495 493 495 497 496 498 499 497 498 496 495 496 494
114 111 113 116 113 115 118 116 114 111 108 109 110 111 113 110 107 108 110 111 113 112 109 111 112 114 111 113 110 108
123 128 133 305 259 266 260 156 161 163 160 133 160 461 130 307 258 137 163 167 162 167 170 168 163 165 172 161 160 156
91 85 82 88 90 93 94 90 85 82 78 72 70 66 67 65 71 75 74 75 69 75 69 63 64 61 67 72 76 75
306 132 136 292 305 137 138 140 137 136 138 140 143 258 133 135 132 127 133 304 258 269 204 201 239 144 143 170 141 247
176 145 142 171 199 432 429 426 247 426 431 432 431 426 173 197 423 172 199 426 247 251 246 240 235 436 440 442 233 237
282 395 391 395 397 398 351 346 350 351 345 350 349 354 346 345 453 150 183 180 443 438 440 434 429 427 425 426 171 425
26 32 30 35 30 33 34 37 40 37 35 41 38 39 36 41 39 37 35 33 29 24 21 27 28 23 27 25 23 28
197 194 191 149 151 150 453 400 399 444 185 183 443 438 235 435 434 440 234 442 439 435 203 239 235 176 204 269 270 273
239 431 426 422 414 419 421 171 169 170 164 169 170 165 163 161 163 165 172 421 170 421 422 197 419 423 171 173 426 249
177 269 272 205 232 272 233 206 272 204 439 444 180 150 451 182 150 264 322 324 262 394 395 389 367 355 354 349 356 366
312 310 319 459 153 405 402 150 186 401 398 449 183 185 439 185 188 436 430 428 426 431 202 203 147 261 308 260 147 145
119 118 119 122 123 124 127 132 306 308 305 288 307 129 290 128 134 164 171 246 425 242 247 252 250 244 250 248 254 251
189 403 453 339 333 384 387 390 386 383 364 337 331 335 387 391 390 339 333 390 339 317 314 456 342 340 335 321 261 265
516 517 519 517 518 516 514 515 516 514 513 512 510 512 514 513 511 512 511 513 511 513 511 512 511 509 511 509 510 508
52 49 52 51 53 55 54 50 56 55 52 56 60 63 69 72 69 66 64 67 61 62 63 67 69 74 73 77 73 68
511 510 509 511 510 511 509 511 513 515 514 512 514 515 516 515 514 515 514 513 515 514 515 517 515 517 519 517 516 515
271 270 295 301 256 141 171 425 249 424 427 432 436 440 184 186 403 455 342 339 341 337 363 352 367 355 362 364 386 388
498 499 497 496 495 497 499 500 502 500 499 501 500 502 504 502 504 503 504 505 507 505 506 507 505 507 505 503 502 503
298 301 257 302 295 298 301 296 270 266 144 199 196 423 426 431 427 241 238 235 439 442 445 184 440 184 439 234 239 173
16 12 10 9 7 8 9 8 7 10 8 6 3 1 4 7 5 7 10 12 10 11 16 13 14 16 19 17 22 26
477 476 473 472 470 473 472 475 477 474 472 471 468 311 460 158 459 154 456 318 321 317 338 340 453 344 452 403 152 401
156 260 266 264 147 259 146 156 155 457 454 452 401 402 186 188 184 190 191 149 154 149 148 176 264 261 306 303 257 291
158 157 462 312 462 463 308 262 261 321 263 282 263 264 177 152 147 178 147 261 147 150 453 452 448 452 450 452 451 346
360 336 393 395 394 323 327 310 309 127 132 133 132 131 290 287 280 279 280 279 292 267 277 274 297 302 273 296 297 295
54 52 51 53 51 53 57 56 59 56 51 56 49 56 51 57 55 49 50 56 60 65 68 74 70 76 78 83 85 86
121 124 465 129 127 132 135 290 129 124 471 470 124 468 467 311 313 310 308 261 309 323 309 463 310 326 262 325 286 263
286 284 325 323 327 330 327 325 322 459 261 146 174 173 176 201 146 152 264 152 404 402 152 150 264 268 266 259 144 199
376 379 374 381 384 386 361 382 368 372 374 371 381 378 377 375 376 379 378 381 366 356 350 349 344 452 448 451 348 350
456 455 453 452 400 181 442 235 233 232 205 235 234 204 201 432 430 433 430 433 238 201 438 436 235 237 239 234 272 274
294 279 277 270 303 292 136 137 167 171 144 239 235 202 147 149 176 178 176 235 269 270 266 259 157 156 152 177 266 304
531 533 532 530 533 536 538 541 539 540 541 542 546 544 545 543 546 543 544 542 541 543 541 542 543 542 540 539 540 543
64 66 63 65 70 72 70 66 69 63 66 65 60 59 55 58 56 51 53 59 64 63 61 57 58 57 56 54 53 50
188 202 203 177 149 179 443 442 179 442 445 448 347 453 402 152 190 404 401 451 449 450 449 447 452 347 345 351 347 451
51 53 55 49 59 64 66 67 63 65 64 68 72 68 74 73 70 72 78 82 85 87 93 90 93 90 84 79 75 79
219 222 225 222 225 223 220 218 216 218 220 219 216 214 212 209 271 207 206 272 269 268 177 265 282 395 396 398 393 395
285 287 267 278 279 281 271 268 274 297 253 301 257 305 288 262 146 143 142 302 303 144 256 143 303 295 294 302 256 144
132 306 129 465 469 467 465 130 134 137 139 255 295 299 296 274 236 234 203 176 174 156 260 156 145 156 458 157 260 307
305 132 129 130 465 466 127 309 129 308 309 312 468 126 326 285 289 292 302 144 140 255 141 247 244 239 238 202 436 434
362 365 383 382 374 384 371 368 365 364 362 357 359 360 337 339 336 388 386 331 330 316 336 320 334 337 335 324 323 307
385 368 362 364 336 391 283 285 286 284 324 331 386 336 330 332 335 386 364 361 359 362 363 369 363 382 365 380 374 377
421 420 422 198 197 196 419 422 419 422 173 243 238 202 200 175 200 196 195 190 192 195 174 194 152 175 178 150 148 264
290 293 304 294 256 301 255 257 143 142 258 303 292 294 255 142 247 249 247 252 255 136 135 130 290 135 136 138 167 169
173 423 199 172 170 165 414 162 157 159 461 459 310 262 325 320 319 321 151 176 149 148 150 182 181 396 393 390 321 336
70 73 75 73 67 68 74 71 66 64 59 54 59 55 56 61 62 64 62 61 64 60 49 52 54 56 52 56 59 65
273 271 272 273 302 294 255 302 140 303 137 135 290 130 134 160 461 158 412 158 458 455 151 455 318 323 263 148 261 157
364 357 345 346 355 348 346 452 342 337 331 333 339 453 456 317 320 314 315 459 156 461 158 461 459 159 463 159 462 465
508 506 505 506 508 509 511 509 510 509 507 509 511 512 514 512 514 513 515 517 519 521 523 521 520 521 520 523 521 520
432 202 236 237 434 432 428 242 431 237 203 176 200 198 419 423 418 165 418 197 423 171 167 171 141 137 164 161 162 166
523 520 519 520 522 521 522 524 527 530 529 531 530 529 526 529 532 529 528 526 527 529 527 529 532 534 533 531 530 531
380 376 377 378 379 376 378 380 365 382 366 364 366 363 382 374 376 381 386 360 365 385 383 382 388 371 366 367 364 369
500 498 499 501 503 505 504 503 504 503 505 507 506 507 506 504 503 505 503 504 506 505 506 508 506 507 506 508 510 509
43 40 38 39 40 37 33 35 30 24 25 29 27 25 23 19 16 17 18 17 20 21 22 24 21 15 21 24 18 24
10 9 7 8 5 3 6 9 8 10 7 5 7 9 12 14 11 12 14 20 19 20 14 11 9 7 8 7 8 6
159 461 309 127 123 125 289 133 289 305 308 463 309 262 309 311 308 261 309 459 311 312 316 321 338 318 319 310 460 156
301 303 302 293 295 303 255 301 299 251 248 245 249 243 248 425 424 427 246 254 250 253 298 254 142 164 167 171 169 171
280 267 269 206 272 228 225 226 228 208 206 207 281 268 282 286 129 125 124 121 124 128 134 131 306 290 306 289 133 134
232 233 234 206 230 275 274 236 242 430 238 434 431 201 200 239 201 176 146 143 137 132 129 125 128 465 464 462 311 309
116 115 118 115 117 115 114 112 109 106 105 102 105 107 108 107 106 107 110 111 110 108 107 109 106 104 107 108 105 103
240 236 242 430 432 199 174 198 173 198 200 172 143 161 172 198 420 424 422 426 427 424 246 250 141 254 250 251 299 297
117 115 117 120 117 114 111 108 110 113 116 113 112 115 114 113 116 113 114 111 108 111 108 105 102 105 103 101 104 107
260 175 259 262 310 323 317 341 317 454 341 360 382 365 361 358 362 367 385 372 373 371 373 383 361 357 358 359 356 366
490 489 490 488 487 485 484 485 486 485 486 483 486 488 490 492 495 497 496 495 496 495 494 492 491 492 491 492 495 493
27 32 35 36 34 29 31 36 31 37 31 28 25 22 25 22 20 19 15 18 15 12 15 17 21 24 27 31 26 27
0 2 1 4 1 4 5 3 2 4 2 3 4 6 7 5 6 9 6 3 2 4 6 3 0 3 1 3 6 9
446 448 447 448 452 403 402 182 401 400 344 345 358 361 367 354 356 357 355 348 452 347 450 348 344 341 339 389 385 391
42 39 36 37 32 26 21 27 23 19 20 24 27 29 27 29 31 32 33 32 31 26 30 25 24 19 13 16 17 20
102 103 106 104 105 107 109 110 111 110 112 109 108 107 106 103 106 108 106 107 108 106 103 105 107 108 111 114 117 114
258 256 243 242 247 142 255 294 274 276 271 268 280 288 291 290 128 134 138 170 172 144 257 141 253 250 252 299 248 247
245 242 173 146 261 307 310 318 154 155 158 164 167 137 164 158 461 310 309 308 322 323 311 314 322 262 260 264 178 202
314 313 316 312 309 307 286 282 265 207 208 231 229 208 228 225 222 221 219 216 213 212 215 219 215 212 215 217 215 216
249 243 425 428 425 422 417 416 421 165 169 141 250 248 246 142 170 141 136 133 132 129 308 307 133 136 303 293 291 303
295 296 270 267 303 257 135 291 257 305 266 261 461 311 319 326 285 263 261 265 207 233 269 264 394 264 177 205 233 272
257 144 171 421 171 168 421 416 422 199 432 191 186 187 404 152 147 153 404 406 409 414 162 414 198 201 435 429 432 435
335 319 309 326 319 320 315 313 312 460 159 163 162 414 409 408 409 408 197 195 173 172 142 137 140 138 135 136 138 136
163 158 160 162 413 166 161 163 167 138 170 167 166 169 140 143 145 260 264 259 147 179 202 175 152 190 186 185 191 189
361 359 364 369 367 371 380 372 374 385 387 335 387 385 389 352 389 383 375 374 377 376 377 376 377 379 380 384 373 365
542 539 537 538 541 538 540 539 538 536 538 535 533 534 536 535 533 535 538 536 534 537 536 534 531 533 531 530 527 526
488 486 485 486 485 484 486 484 481 478 477 478 480 479 476 478 476 479 477 474 473 475 478 480 477 475 477 479 478 477
357 361 362 365 384 373 381 387 388 364 359 362 358 363 359 361 383 389 332 336 386 332 391 332 334 332 324 285 287 307
484 486 484 481 479 476 477 480 478 477 478 481 479 482 479 482 485 486 487 486 485 487 485 487 485 482 480 477 476 473
487 489 487 485 482 484 483 484 481 478 477 476 474 476 479 478 480 483 481 480 478 475 478 476 475 473 471 474 477 479
209 208 228 208 231 272 276 228 206 268 270 274 268 270 275 276 275 228 272 231 205 207 396 263 281 207 268 208 206 232
356 353 367 361 367 365 386 381 386 332 331 324 318 457 152 174 143 137 134 130 125 124 471 470 466 468 130 464 134 131
433 432 437 435 201 174 259 266 261 321 154 157 154 148 177 150 451 452 343 451 348 351 349 350 356 363 349 346 350 349
348 357 355 352 371 385 389 340 342 452 447 399 401 453 347 447 444 184 182 186 185 186 183 181 178 182 447 401 402 190
129 290 287 267 258 143 161 158 164 138 136 256 143 139 137 160 161 164 167 137 160 156 461 261 306 131 130 133 130 306
19 17 16 20 22 26 20 19 24 18 16 18 15 20 17 13 11 17 22 27 21 27 21 17 21 17 11 9 10 8
39 34 29 31 33 34 33 27 32 37 34 31 29 25 24 27 31 32 27 26 25 28 27 24 23 21 26 20 21 18
234 272 270 265 146 144 173 142 254 298 300 253 141 136 134 138 167 171 168 170 171 424 171 143 171 425 246 245 251 247
517 519 520 518 519 520 519 520 519 518 520 518 519 521 519 517 516 517 519 521 523 521 519 517 515 516 514 513 515 514
297 253 300 294 271 268 276 271 272 233 207 204 149 146 174 172 173 146 152 177 266 145 174 143 258 291 135 140 303 295
71 76 74 77 74 69 64 66 68 73 78 84 82 79 73 78 73 70 67 73 68 69 64 68 69 72 77 79 77 82
340 338 332 336 317 318 323 335 332 329 326 327 328 327 329 325 330 332 331 334 320 319 313 314 320 321 316 318 455 150
130 126 326 286 262 285 324 321 263 322 263 321 324 335 317 455 317 341 340 335 324 320 393 399 451 182 446 399 179 182
529 528 529 530 527 530 529 530 532 530 533 535 536 533 534 531 532 530 533 536 535 538 539 537 534 535 533 536 534 535
534 536 535 536 538 537 536 533 534 531 530 527 524 525 524 521 523 524 523 524 522 524 521 519 517 519 520 519 518 517
66 68 70 64 69 71 65 70 74 77 74 77 83 87 85 91 90 86 80 83 78 76 79 81 83 77 80 76 82 77
138 135 305 259 261 306 260 262 259 175 269 271 267 272 270 273 233 237 238 239 173 172 422 419 199 173 195 174 198 423
171 167 162 159 160 164 143 142 257 259 265 283 287 289 125 129 135 129 126 308 261 461 261 322 320 331 386 383 384 386
170 422 197 420 415 418 422 420 414 417 414 165 172 164 169 140 258 307 263 262 148 150 186 188 184 182 183 445 399 398
311 323 312 323 317 323 330 316 336 383 386 381 380 381 372 367 362 359 356 366 353 348 352 363 349 357 355 363 361 362
473 476 479 480 478 479 478 480 482 481 484 485 487 485 482 480 477 475 473 474 473 475 473 472 471 468 312 323 312 468
480 483 486 485 483 481 483 485 486 487 486 484 481 478 480 478 480 482 481 484 485 482 483 484 485 482 481 480 481 484
235 434 236 274 275 277 271 272 270 277 267 282 281 288 129 135 130 127 466 465 129 463 468 469 312 315 456 151 453 341
518 519 518 516 515 514 516 514 513 511 513 512 514 516 518 519 518 520 519 517 518 519 520 521 519 521 524 527 529 532
399 398 451 182 187 190 404 187 149 187 180 150 180 150 177 265 262 326 286 125 124 468 465 462 309 319 339 338 319 314
530 532 530 532 529 526 525 523 521 520 521 524 521 519 517 519 521 523 524 521 522 521 522 521 522 520 519 520 522 524
37 35 39 42 43 46 43 42 39 34 29 30 33 28 26 21 22 16 22 28 31 36 41 35 40 37 38 33 36 39
185 187 186 402 451 346 451 345 344 340 337 316 318 323 335 324 284 263 394 390 384 374 385 390 333 387 388 390 334 383
212 209 281 283 394 264 175 239 238 243 426 249 245 244 300 240 236 233 237 431 241 426 429 428 425 249 425 424 426 245
247 141 143 142 243 246 251 247 251 249 243 242 237 431 434 202 179 184 190 153 148 175 260 174 152 151 404 403 405 407
63 62 58 56 55 57 63 65 62 65 66 62 57 59 61 56 58 55 49 50 47 46 45 44 41 36 40 39 36 34
543 542 546 542 544 541 540 541 543 541 544 542 543 540 538 536 535 536 534 531 532 534 537 534 535 536 535 533 530 532
288 292 306 262 284 283 394 392 394 391 336 383 336 389 333 385 370 367 385 369 378 376 381 371 388 367 380 376 379 375
38 39 36 41 43 45 48 47 48 46 44 42 39 41 35 36 38 39 34 37 36 30 24 23 21 27 29 31 33 36
203 237 438 179 443 444 445 184 439 204 149 146 177 234 204 176 179 204 442 235 434 201 234 237 236 240 241 237 431 237
309 463 134 129 125 289 305 266 177 268 274 294 292 294 296 273 296 299 301 255 295 298 300 247 141 172 257 137 143 258
211 209 229 209 268 208 209 212 214 215 217 218 217 219 218 220 221 218 220 221 222 221 224 222 221 219 217 220 217 214
299 253 254 246 252 246 171 198 196 195 197 409 406 404 193 408 404 190 403 401 187 181 187 403 404 454 457 458 460 461
100 99 102 99 97 96 93 87 84 82 87 84 89 90 88 93 96 95 97 95 94 91 94 89 88 85 83 89 86 84
482 485 482 485 486 484 481 484 481 478 481 480 479 480 482 481 483 486 485 486 488 490 489 491 493 492 491 489 487 489
330 332 390 386 331 328 329 326 319 320 338 339 341 454 339 335 331 320 333 337 331 334 335 324 391 332 385 389 340 348
217 219 221 222 223 224 225 228 208 268 265 205 203 176 151 400 447 446 443 441 440 442 441 443 180 204 236 232 233 205
539 541 544 545 544 546 542 545 548 545 546 547 545 543 542 540 538 540 542 539 540 542 543 545 544 542 539 541 544 543
332 320 332 385 366 352 350 355 350 349 353 349 350 448 450 446 443 179 147 266 279 271 276 279 280 278 274 277 274 268
112 115 113 115 112 109 107 109 106 107 106 103 104 102 103 105 102 103 104 107 110 113 111 110 107 108 105 102 104 107
139 143 164 165 163 158 156 152 148 175 264 149 152 151 150 147 203 177 265 177 181 177 202 188 194 196 197 410 412 410
509 510 509 507 506 507 508 507 506 508 510 508 509 511 510 511 512 513 511 510 511 513 512 514 515 513 515 513 514 516
184 183 189 186 190 193 192 404 187 192 188 190 193 408 406 193 408 196 416 414 418 413 412 158 159 461 462 460 160 145
300 256 300 244 238 432 195 194 193 189 194 174 172 421 418 413 163 167 166 162 159 158 159 163 166 418 421 417 415 197
533 531 529 526 525 527 526 529 530 529 530 532 531 530 527 530 527 526 524 525 523 520 519 521 523 525 527 530 529 528
59 63 65 69 71 77 81 78 76 70 68 74 68 69 66 67 66 60 62 67 73 69 66 70 68 70 69 64 58 57
544 542 544 543 541 543 546 548 545 544 541 543 541 540 541 538 537 539 538 539 540 542 546 543 547 545 548 546 544 542
194 153 404 152 404 186 401 404 187 149 264 150 148 401 343 346 351 352 366 371 367 355 353 354 364 381 379 377 375 377
411 162 161 157 310 319 459 322 319 313 311 318 339 454 341 339 321 317 336 330 320 321 335 330 335 321 393 400 398 395
532 529 528 526 524 521 523 521 522 520 519 521 522 523 521 519 517 518 517 519 521 519 520 522 523 522 521 524 522 524
113 115 118 120 122 119 122 119 116 114 116 113 110 111 108 106 103 102 105 102 104 107 109 106 103 102 100 99 102 101
126 128 130 133 257 304 291 305 267 258 136 305 129 124 125 123 125 129 463 163 463 309 323 330 328 330 336 331 330 326
118 115 118 116 118 116 117 116 113 116 119 117 120 117 118 119 122 120 119 121 123 128 124 123 120 119 118 117 119 116
186 189 405 408 410 419 416 417 422 198 174 147 179 184 183 189 185 182 400 181 182 398 400 449 448 446 450 183 184 179
165 171 144 302 257 255 254 256 172 164 138 133 139 256 171 169 171 143 141 254 247 300 295 294 295 292 290 130 132 131
198 422 168 165 164 143 142 143 146 264 395 397 396 178 206 229 275 273 233 204 231 228 276 272 277 278 276 273 276 209
525 526 525 524 521 522 523 522 521 523 520 518 519 517 519 518 517 518 517 518 516 517 516 517 516 517 519 520 523 521
31 35 40 35 36 37 34 37 33 38 36 38 33 38 35 40 38 37 34 33 34 37 33 30 24 28 23 18 14 11
168 171 421 170 256 294 302 274 297 299 298 297 299 248 253 297 299 300 243 173 175 235 176 179 177 268 207 178 176 264
388 389 392 394 391 396 394 398 391 321 390 391 397 181 396 397 395 390 335 386 337 386 335 333 382 381 380 371 374 384
254 253 252 299 296 275 274 277 275 268 177 265 146 144 172 173 145 147 152 458 157 156 460 458 457 459 157 308 126 309
296 256 259 145 258 257 136 290 135 305 129 289 290 291 303 304 267 278 279 287 284 286 288 291 292 288 279 267 266 262
137 141 140 136 138 136 306 305 137 132 290 135 139 141 250 425 250 248 254 246 247 426 429 433 428 425 421 419 417 419
413 158 163 168 422 198 172 170 422 419 423 422 197 173 176 179 443 444 445 449 347 448 445 180 184 183 400 343 344 346
229 275 228 225 228 227 275 276 278 293 296 294 255 293 302 140 142 143 302 255 253 141 254 301 140 170 167 164 170 165
82 79 85 81 83 85 88 89 91 86 81 76 79 74 80 83 88 92 91 86 90 89 91 93 87 91 85 87 89 91
231 234 272 207 282 284 281 271 270 265 270 273 271 266 146 264 268 209 276 270 265 147 149 401 150 402 400 450 452 450
476 478 475 476 477 475 478 477 474 472 470 469 312 313 461 309 307 305 288 306 286 287 290 293 136 143 173 243 248 253
28 32 31 33 38 37 31 36 35 34 28 27 28 26 25 30 27 31 29 33 35 31 37 34 38 34 35 30 31 36
29 23 27 25 30 24 29 23 24 20 21 18 16 17 11 10 11 12 16 21 18 19 17 15 17 18 24 19 16 21
222 219 221 220 223 225 226 224 223 220 217 215 218 215 218 220 222 225 227 225 227 225 223 221 218 219 218 220 223 224
191 176 150 177 268 204 201 144 259 174 194 201 198 194 192 186 190 189 194 195 432 434 238 431 427 246 240 237 235 434
161 414 198 197 174 200 432 433 436 435 434 439 187 179 202 239 237 239 435 438 202 147 150 183 179 182 401 149 154 455
354 367 386 388 391 392 396 397 391 283 394 392 396 283 263 285 281 269 258 144 201 198 418 417 414 162 166 160 159 157
57 61 60 66 69 68 69 73 77 75 69 72 70 75 69 70 73 74 72 67 64 70 69 68 62 59 62 66 65 71
110 111 112 115 114 112 111 113 114 111 113 114 117 114 117 116 119 121 119 116 119 121 122 124 129 135 257 138 139 303
149 179 186 184 189 193 404 406 405 189 191 186 187 184 447 401 452 401 403 404 403 453 451 449 400 183 149 187 150 403
214 217 216 217 215 219 220 218 220 219 217 215 213 215 218 217 218 215 218 216 213 214 212 210 208 228 231 204 234 202
336 390 340 341 342 344 343 455 154 148 264 176 173 258 267 205 208 206 268 270 275 227 224 225 224 221 218 216 217 219
472 475 472 474 477 479 482 481 484 481 478 480 481 479 482 479 477 474 471 474 472 469 472 471 469 470 124 128 132 134
106 104 106 109 110 108 107 110 108 107 105 104 105 108 105 108 111 113 111 113 115 113 111 110 107 104 107 106 107 110
313 315 314 461 159 163 167 137 139 137 135 132 306 262 308 311 312 467 465 127 123 127 124 122 123 126 130 463 308 133
414 416 414 198 200 193 195 201 238 437 434 435 438 441 444 185 189 193 187 202 431 435 432 434 433 435 437 439 203 438
322 323 312 309 311 319 314 318 324 335 336 387 331 324 285 284 395 392 389 393 320 336 338 315 312 460 311 308 307 260
463 159 413 165 168 166 170 169 164 165 421 425 249 248 245 247 250 246 244 239 240 245 425 426 430 431 428 423 419 415
546 542 544 543 540 543 542 544 541 544 546 547 544 547 544 542 545 547 546 545 546 543 546 548 547 546 543 541 540 538
248 252 300 244 238 434 430 242 244 299 251 249 251 249 250 253 250 251 253 298 254 142 302 142 143 255 253 300 255 257
49 60 58 64 65 71 70 75 81 84 82 86 81 78 82 87 84 83 88 90 93 91 92 87 88 85 81 85 82 79
218 217 220 217 216 217 220 221 222 219 217 216 219 217 214 213 212 211 208 230 208 209 229 208 228 206 269 304 307 263
274 277 276 279 277 272 205 265 262 307 309 129 462 130 128 134 137 142 302 305 260 309 306 292 136 256 254 300 247 252
109 110 107 105 108 105 106 104 105 102 103 104 105 107 106 107 104 106 109 108 105 107 105 103 102 104 103 101 103 104
178 204 180 234 434 440 435 235 442 437 436 432 437 431 432 427 245 250 245 243 254 246 244 238 432 201 435 432 202 178
167 163 134 139 135 138 140 135 130 305 289 126 123 120 121 123 122 121 119 120 123 124 470 469 312 314 456 153 190 153
435 440 435 432 191 199 171 246 171 170 138 139 135 291 288 266 264 148 149 181 396 392 390 321 394 391 390 339 360 340
519 521 524 522 524 527 530 527 530 532 530 531 529 528 530 532 529 527 529 530 533 530 532 534 531 532 530 532 533 532
115 113 115 113 114 111 113 110 107 110 112 111 109 106 108 111 110 108 105 108 106 108 111 112 114 113 115 117 120 118
56 50 48 50 49 59 61 56 49 60 66 63 62 67 69 65 66 69 70 66 69 72 67 72 76 71 74 79 81 77
337 389 387 336 383 373 372 375 372 370 367 362 355 348 355 367 354 353 355 350 348 350 348 350 354 356 353 356 346 345
15 19 17 22 19 24 27 25 20 22 25 22 16 13 18 24 19 24 28 32 37 39 35 33 29 26 20 26 29 32
441 443 445 181 445 448 449 400 397 400 393 399 449 447 445 442 184 180 234 441 232 229 231 205 204 236 238 430 429 432
401 187 404 454 455 458 154 402 453 456 316 337 386 364 337 320 335 330 332 331 330 327 323 262 323 318 314 313 316 339
182 151 190 187 180 183 447 445 399 351 346 348 400 452 399 445 183 450 398 394 391 387 389 337 390 333 387 364 367 384
394 321 336 390 332 331 383 336 364 362 358 356 366 353 367 370 371 352 367 362 355 346 350 448 445 448 347 344 400 397
32 35 31 30 34 33 31 35 39 37 34 38 33 28 25 20 14 17 22 25 28 27 28 30 35 31 30 26 28 34
371 366 372 375 383 389 364 337 361 360 338 343 400 397 391 389 388 368 373 384 374 385 383 332 334 336 335 323 320 314
227 229 228 230 232 234 203 442 204 180 442 235 238 434 238 201 144 239 144 172 173 144 143 173 197 420 416 414 420 418
479 476 479 480 478 481 480 477 479 478 477 474 475 473 471 474 471 124 126 468 463 310 326 324 332 384 383 388 382 369
317 340 339 338 316 320 325 285 281 282 283 263 321 263 322 309 262 261 307 262 307 260 306 131 135 139 170 139 303 291
206 228 209 277 280 279 281 282 283 394 395 392 390 385 373 365 374 369 354 355 366 365 360 338 334 320 390 336 386 389
382 381 383 381 365 367 373 379 373 367 354 357 366 367 354 364 370 385 365 384 364 363 357 362 368 384 333 382 388 387
141 139 255 253 252 249 248 253 254 142 258 307 288 286 283 282 267 304 270 271 279 294 303 293 301 254 248 247 254 142
221 219 215 218 215 216 213 211 208 268 274 278 272 271 296 256 300 254 244 239 200 428 430 427 424 249 243 254 302 297
223 224 223 224 225 226 223 222 221 219 218 221 219 218 219 216 217 218 220 221 224 225 226 227 229 206 203 236 242 243
461 261 154 149 154 318 315 311 308 310 318 323 394 392 389 390 321 261 266 177 205 234 201 198 423 196 194 192 190 403
44 41 39 38 39 40 37 31 28 33 27 22 24 23 29 34 31 32 35 32 31 35 31 34 35 38 33 38 39 41
88 85 79 83 79 74 70 75 69 75 69 74 78 74 78 84 80 79 82 87 83 80 78 83 78 82 85 82 84 89
457 405 407 405 406 409 196 200 176 203 206 228 230 232 272 204 234 437 438 203 237 242 246 250 247 425 243 426 430 427
244 241 245 244 247 245 425 243 426 199 196 197 196 409 412 158 411 412 414 416 420 419 424 249 252 250 253 301 253 300
151 148 262 394 390 389 390 385 387 383 336 339 336 331 383 388 371 372 366 381 372 369 368 388 387 336 387 364 380 373
101 102 100 99 102 99 97 94 91 93 94 89 86 90 87 89 86 82 83 87 86 81 85 83 88 91 95 94 89 83
440 441 232 233 203 177 180 396 265 178 175 149 264 150 398 391 332 337 389 336 364 387 390 339 338 315 318 335 340 390
526 524 527 530 527 525 527 525 526 527 526 524 521 524 521 522 520 522 520 518 520 523 525 524 527 530 531 534 531 534
153 456 459 159 162 414 198 195 201 174 259 157 309 460 312 319 330 336 340 317 454 457 458 154 157 147 265 259 143 138
412 409 411 414 411 458 459 315 314 458 153 152 404 191 185 186 404 189 188 439 437 431 239 240 273 296 294 278 275 206
134 164 137 135 132 138 134 305 288 305 129 462 312 311 310 307 305 292 288 291 288 279 266 259 137 141 254 255 252 300
319 339 321 317 323 262 309 307 286 287 307 288 289 291 288 287 262 307 262 288 262 307 285 283 282 285 286 326 308 155
502 501 499 497 498 499 500 502 504 503 504 505 507 509 510 512 510 509 510 511 509 508 506 504 506 508 509 507 508 510
289 126 463 311 318 154 460 458 157 308 305 136 134 463 308 155 148 182 443 440 443 182 181 400 451 348 346 354 350 449
80 83 84 81 87 92 95 97 99 100 99 98 97 98 99 102 99 98 96 98 99 97 98 96 98 101 102 101 100 98
353 350 451 400 402 153 147 265 283 287 284 281 269 266 260 160 163 161 163 161 162 412 410 194 193 191 176 178 207 206
105 102 104 102 103 105 102 101 98 100 102 101 104 102 103 102 105 104 107 110 109 110 109 111 114 113 110 112 114 111
125 130 464 134 139 140 135 290 288 285 307 289 133 308 460 158 461 314 461 156 457 154 402 186 184 182 398 445 447 347
65 69 65 68 73 68 65 70 75 81 80 86 90 89 83 81 75 81 87 81 83 87 84 88 86 87 88 86 90 93
157 162 159 158 162 163 167 166 169 166 165 167 164 166 164 159 461 458 459 457 151 153 458 456 317 322 326 309 323 308
35 31 37 33 38 40 43 44 42 41 40 43 45 47 50 48 45 48 45 44 43 44 41 39 36 37 38 36 34 31
104 105 104 106 103 102 104 105 107 106 109 106 107 104 102 104 107 105 102 104 101 103 101 104 103 101 103 101 98 101
352 370 371 365 386 388 384 367 366 360 337 341 359 358 356 358 363 340 338 340 335 337 320 314 311 461 158 161 145 260
383 385 390 339 317 320 339 341 317 336 333 389 335 390 385 389 394 324 285 262 307 288 285 325 322 325 262 326 309 261
510 509 511 513 511 512 510 511 513 515 514 513 514 516 514 512 514 516 517 518 519 518 520 523 521 522 523 521 524 525
175 146 143 161 157 158 153 402 456 315 338 316 317 154 460 158 461 308 323 263 284 395 399 181 149 154 147 264 263 260
272 205 265 281 271 209 207 282 285 325 320 319 325 330 323 309 463 134 131 134 160 259 137 160 157 158 163 158 164 165
396 392 396 394 262 325 328 324 284 286 306 288 292 303 306 266 205 206 207 178 444 450 449 183 399 446 182 402 343 401
270 279 278 275 229 228 226 229 230 227 230 208 230 272 276 227 224 226 228 231 207 272 275 230 272 207 233 235 439 188
458 461 157 159 156 148 260 262 321 151 455 154 152 156 155 147 178 181 398 181 442 437 441 439 188 439 188 192 404 194
202 432 201 198 422 198 414 415 197 193 189 192 186 150 400 393 390 324 390 394 262 321 155 460 309 460 458 459 461 309
459 261 147 264 175 204 438 238 234 272 228 277 275 206 205 177 203 239 235 438 236 203 149 153 157 158 412 414 161 157
278 274 272 276 275 276 209 268 204 234 232 205 272 228 209 277 281 282 281 277 280 279 288 306 132 305 137 164 159 158
495 494 493 492 490 489 490 492 495 496 494 496 497 498 499 498 496 498 500 498 500 498 500 502 501 502 501 499 500 502
418 416 421 417 414 410 408 196 193 198 173 144 173 176 175 258 257 138 143 142 258 305 302 258 291 306 129 127 464 134
90 87 83 80 85 87 86 85 89 92 90 92 94 89 90 87 92 95 92 86 80 83 86 91 92 88 92 88 83 89
238 200 192 190 194 199 424 419 199 194 176 177 266 271 272 230 275 268 277 275 268 267 279 271 276 227 230 275 230 232
341 344 340 337 334 336 320 321 151 190 151 182 399 182 149 175 146 144 171 140 138 139 134 130 305 289 126 128 133 137
18 15 16 15 16 13 17 19 21 24 19 16 13 19 20 15 19 24 29 28 26 23 21 23 21 25 20 21 15 16
20 17 14 15 18 20 25 24 20 16 11 10 8 11 16 15 16 20 14 13 10 7 10 8 7 4 3 5 3 4
342 317 340 335 319 339 453 451 447 347 447 400 445 398 392 394 393 390 334 330 334 320 316 315 317 322 321 322 326 324
497 498 500 501 499 498 499 498 499 500 498 496 498 499 501 499 500 501 499 498 497 498 499 501 499 497 498 497 495 494
268 278 274 275 227 275 268 204 272 277 279 294 255 294 271 267 268 206 228 272 205 232 234 440 444 439 184 442 179 148
339 321 336 393 391 283 262 155 152 151 190 193 405 402 451 150 398 451 447 452 345 451 350 356 345 343 345 340 390 391
199 422 417 418 166 162 412 411 415 197 411 162 159 157 259 133 136 141 171 256 293 303 304 257 135 133 160 157 460 462
145 143 164 167 162 166 161 411 161 160 165 166 169 168 166 164 171 198 194 197 423 426 429 430 242 173 170 171 144 200
41 42 40 39 42 45 48 51 55 49 56 54 51 50 53 59 54 51 53 51 54 53 54 53 57 55 56 57 53 56
409 406 405 153 155 154 149 401 453 341 360 337 386 360 359 358 361 383 388 391 324 284 262 264 396 391 395 282 267 272
253 255 140 141 137 256 300 294 297 301 293 257 305 260 156 155 151 182 151 176 190 187 185 187 181 445 180 443 440 234
504 503 502 503 505 506 505 504 502 504 506 505 503 505 507 505 504 503 502 500 498 500 502 503 505 504 503 501 499 500
169 166 162 166 162 411 408 197 415 414 161 172 200 195 428 433 429 432 436 433 432 430 242 237 238 200 192 200 432 200
261 308 460 458 155 153 152 176 178 265 283 264 259 174 144 147 174 177 148 147 144 266 279 287 280 268 205 268 271 207
395 283 395 397 399 451 448 445 182 148 263 395 283 262 309 126 309 323 322 459 309 260 261 157 156 159 162 414 409 411
424 422 171 172 422 423 422 417 415 197 422 424 422 414 165 166 413 415 421 419 410 407 193 408 409 193 406 407 408 410
25 21 16 13 18 16 22 20 15 14 15 20 22 20 23 25 24 30 27 21 15 16 13 18 17 19 17 22 21 27
200 428 431 430 426 429 435 239 201 438 233 275 227 225 228 231 205 270 258 175 258 260 156 158 159 463 130 125 128 306
370 353 355 356 354 363 348 449 445 450 344 342 453 403 454 151 176 194 200 431 201 435 235 238 430 433 428 199 423 417
545 547 545 548 545 543 541 540 541 544 546 543 546 542 540 541 540 539 538 537 539 542 541 539 540 543 545 547 543 544
142 143 256 258 302 301 300 247 253 250 251 254 248 425 248 254 246 250 425 246 248 244 254 246 241 238 430 436 440 234
538 536 533 534 536 538 537 539 540 538 541 540 543 547 545 542 543 545 548 547 545 548 547 544 541 542 539 540 543 545
213 216 219 215 213 210 209 210 213 216 219 221 222 224 221 222 221 218 221 220 219 218 216 215 216 218 221 224 226 228
220 219 221 224 226 210 208 209 281 283 281 284 285 286 325 262 306 129 127 129 286 288 307 258 267 278 281 285 261 461
62 64 66 65 67 69 72 67 69 68 73 72 68 64 70 68 63 67 61 63 60 58 60 65 64 69 75 81 78 83
471 468 126 123 128 306 307 287 307 306 132 137 170 164 161 172 141 250 248 245 250 246 244 299 247 252 255 253 251 245
503 501 499 498 497 496 497 499 501 500 499 497 499 501 499 501 499 497 498 497 496 498 499 498 499 501 499 500 498 497
250 248 251 245 241 240 238 437 442 179 202 176 148 263 146 156 459 319 323 317 320 333 335 330 336 385 391 390 324 335
264 148 146 174 194 200 431 242 428 195 173 171 421 415 412 413 165 413 161 414 165 413 162 414 417 419 421 165 169 168
442 444 446 449 183 445 399 392 388 384 387 332 386 332 386 363 369 378 377 376 375 384 383 386 391 390 340 363 364 365
444 187 403 455 456 318 459 318 311 462 468 465 127 462 126 125 124 127 124 128 132 135 257 302 293 294 301 298 300 254
6 5 2 5 7 9 12 11 10 13 18 21 20 14 12 11 10 13 19 23 24 18 23 29 31 26 28 26 21 16
67 62 59 61 67 72 67 62 68 67 69 68 63 64 66 63 59 61 64 66 70 65 71 76 72 77 78 84 89 91
425 248 251 299 248 245 425 246 243 246 244 243 244 238 200 144 147 157 260 308 462 459 462 126 129 291 304 269 272 277
85 84 90 92 90 87 93 89 90 94 89 83 77 79 80 75 70 72 69 64 67 70 76 74 75 80 84 86 81 77
60 59 63 61 63 57 55 58 60 61 63 67 66 71 74 78 79 85 89 83 88 87 92 90 92 96 94 92 95 91
86 82 78 83 84 82 87 81 78 75 69 64 62 60 58 63 61 65 62 65 60 56 55 58 55 59 57 55 60 56
431 437 434 438 238 200 201 239 235 431 238 200 431 434 437 238 200 239 273 272 274 278 294 271 205 271 266 145 147 148
308 261 259 265 177 147 152 150 153 456 457 460 312 319 326 330 324 331 330 333 390 332 384 388 336 389 352 371 365 371
328 331 337 361 358 360 364 333 335 320 390 394 391 324 322 310 327 319 459 157 461 312 460 462 159 158 411 158 160 162
391 321 319 314 312 319 339 316 330 316 313 311 468 463 462 468 465 463 308 155 459 315 316 320 330 327 326 324 262 325
87 89 84 86 82 83 82 88 86 82 84 83 86 90 92 89 91 90 86 92 86 83 81 85 87 93 88 83 89 86
287 280 282 281 263 267 269 235 438 201 173 258 292 289 125 126 123 125 123 121 123 126 308 261 259 137 305 258 259 261
5 8 7 6 9 6 3 6 7 6 9 11 14 20 15 20 14 15 13 19 20 15 20 14 16 21 23 26 27 29
2 1 3 5 6 9 7 4 3 0 2 0 3 1 3 0 1 3 1 2 4 3 5 2 0 1 3 0 1 0
225 222 224 221 223 224 223 225 224 221 220 221 219 221 218 221 219 220 221 223 221 219 222 224 226 210 209 276 279 269
13 12 16 12 14 12 15 12 17 15 18 19 25 22 20 23 24 21 17 14 16 18 16 18 20 16 17 21 16 19
455 453 451 351 354 352 348 343 342 340 359 363 360 336 360 361 386 367 389 390 389 393 399 396 178 176 204 232 441 232
230 206 207 233 235 439 444 442 203 235 436 438 443 442 203 200 174 199 195 198 414 422 170 141 172 173 243 426 422 170
475 473 476 478 475 478 477 474 472 474 472 471 124 127 132 127 132 291 136 256 301 297 253 248 244 239 273 274 295 294
398 395 399 392 388 385 390 321 390 392 390 386 385 367 364 354 349 356 363 360 362 355 353 370 380 377 378 377 380 383
325 319 323 307 304 259 260 155 318 322 310 313 316 337 333 387 383 387 336 391 394 262 285 286 284 325 319 310 327 331
465 128 465 129 290 132 137 139 303 293 279 278 277 279 292 302 301 298 301 256 257 254 299 300 294 270 269 206 232 442
323 322 318 320 317 320 323 394 398 392 396 181 179 178 203 439 180 203 435 237 434 436 431 199 200 428 430 428 195 190
407 405 406 405 406 403 152 177 149 152 455 402 342 456 459 156 458 457 152 194 410 197 198 171 172 257 141 138 141 140
55 57 58 63 65 61 66 62 64 62 67 65 59 49 56 59 62 65 63 69 67 61 62 58 63 68 73 72 73 76
405 403 190 185 187 191 404 407 406 407 193 189 190 150 399 444 182 450 344 342 337 342 452 402 150 452 346 351 345 349
107 104 105 108 110 107 104 106 104 107 105 108 111 109 107 108 106 105 104 106 109 106 103 106 103 101 102 105 104 106
349 356 349 352 353 351 450 350 450 347 349 346 451 399 393 339 393 339 316 317 340 335 320 334 332 338 339 333 361 383
50 48 45 47 45 47 46 44 45 47 44 41 42 39 38 39 36 34 32 36 33 31 36 38 35 39 36 39 42 45
262 306 261 307 133 463 309 307 308 133 160 165 169 168 166 162 166 160 157 458 461 314 457 458 153 404 151 156 461 308
36 33 31 33 28 26 27 24 22 21 24 22 19 18 15 19 24 18 23 22 16 17 11 17 19 15 19 23 24 28
179 176 152 146 203 439 180 204 232 204 207 208 209 212 209 211 214 211 213 214 217 216 218 215 219 218 219 215 217 219
75 79 80 77 71 68 74 79 80 83 88 92 95 94 97 96 92 87 84 87 81 85 91 86 81 78 76 75 72 74
426 246 247 242 430 241 242 201 239 238 236 274 272 269 203 180 149 203 149 401 343 400 151 190 187 181 443 442 180 443
133 257 259 160 159 160 145 261 156 159 162 167 169 166 164 165 172 257 138 136 141 172 161 145 142 164 138 167 138 136
205 273 206 209 276 270 276 277 271 278 280 282 284 263 266 268 269 236 274 272 275 229 228 227 225 227 275 274 269 258
154 147 175 145 258 302 297 296 273 236 240 243 426 199 201 198 199 196 191 192 196 195 192 188 186 404 152 194 196 192
45 42 40 41 36 31 30 28 34 28 29 25 27 28 27 24 26 31 36 33 38 36 39 37 38 35 30 33 32 34
358 357 360 336 388 364 368 371 374 380 369 366 381 385 336 391 324 394 283 324 323 312 460 458 153 403 190 188 190 151
445 400 343 348 344 342 343 348 400 447 451 343 344 453 456 314 317 337 361 386 363 355 362 364 361 386 390 320 334 339
242 236 434 201 238 437 441 437 441 435 436 435 436 433 434 428 199 196 197 423 417 419 415 412 414 417 414 161 143 137
416 418 165 164 165 160 134 135 134 131 464 462 129 133 139 303 256 301 256 144 257 304 303 137 258 143 161 172 173 199
183 184 187 193 404 187 185 182 183 188 193 189 187 186 183 399 450 182 450 182 181 445 398 451 350 352 353 356 357 348
422 414 165 414 197 199 432 201 234 177 234 205 234 179 399 397 394 391 324 325 330 320 318 154 402 153 190 176 147 146
108 107 109 110 107 106 103 101 102 100 102 105 108 111 114 115 114 115 114 113 116 118 115 112 111 113 114 113 115 114
148 263 284 325 262 306 260 157 459 319 313 310 462 312 314 459 313 315 460 313 316 338 341 345 348 344 454 317 320 336
540 543 542 546 548 547 543 547 546 543 542 543 542 539 537 538 537 535 534 537 538 541 543 547 544 542 541 539 540 538
61 57 53 54 57 60 64 63 60 59 57 60 58 60 57 61 67 68 63 66 61 58 55 54 53 49 47 45 42 41
47 48 49 57 63 66 67 65 68 71 74 70 76 82 83 82 78 72 77 72 77 71 66 65 70 66 70 68 69 66
486 484 485 484 481 480 478 477 474 476 473 471 469 468 467 468 464 467 468 465 464 130 126 289 126 463 134 464 463 464
410 413 166 167 165 168 422 172 257 138 140 141 255 143 145 174 194 198 420 197 194 192 196 193 191 176 235 234 205 179
276 273 296 302 294 271 281 208 230 206 230 228 277 279 304 270 258 257 301 140 135 136 255 253 298 253 298 254 244 240
485 486 487 488 487 485 486 484 485 484 486 484 485 483 482 483 486 488 486 483 481 480 483 480 482 479 476 473 470 473
97 94 90 93 89 90 91 94 93 90 89 85 83 87 82 81 86 92 86 81 82 79 74 69 68 72 68 62 61 57
374 376 381 379 369 370 352 353 352 350 355 363 337 333 339 318 456 318 322 263 282 281 267 306 262 263 261 323 312 323
281 265 147 152 149 152 404 408 405 457 155 148 203 204 268 275 272 228 226 210 207 204 201 238 438 201 203 442 436 431
48 50 54 59 57 49 57 56 52 50 51 52 51 55 53 54 59 60 56 57 62 66 67 65 63 62 59 60 61 63
128 125 127 126 128 123 128 125 123 122 121 118 121 118 120 121 120 118 117 114 113 115 114 112 113 114 116 117 116 117
207 208 211 208 268 267 281 278 279 271 266 268 270 302 294 296 275 227 229 210 212 211 212 214 213 214 215 216 219 222
521 519 518 519 521 524 525 523 522 523 525 526 527 528 526 529 526 527 529 526 528 527 525 526 524 527 529 531 533 534
233 232 234 231 228 275 276 274 268 207 269 279 288 286 325 320 334 333 390 388 389 364 385 361 363 366 385 373 379 368
210 209 228 209 231 209 228 227 275 228 209 271 273 302 303 143 258 259 175 260 266 260 160 463 462 460 155 148 146 145
537 536 535 537 534 536 535 536 533 531 534 533 534 532 531 532 533 534 535 537 539 542 546 548 547 544 547 544 546 548
468 469 465 128 126 470 468 462 309 326 310 261 259 258 307 290 307 258 304 305 258 303 305 258 144 146 145 200 199 195
448 452 344 340 390 324 390 389 335 324 320 324 322 325 319 316 315 457 455 317 314 322 155 156 461 311 319 310 308 323
392 391 388 392 388 389 392 394 393 150 183 181 187 183 180 184 182 187 188 187 186 185 187 404 192 404 406 409 411 158
377 376 375 372 366 381 380 367 364 385 368 363 386 381 384 389 340 359 361 333 360 382 383 373 383 361 382 362 366 370
493 491 489 487 485 484 486 484 481 484 482 481 480 477 479 476 473 470 467 461 464 130 308 155 459 457 153 150 149 182
478 480 482 479 478 476 473 475 478 480 477 475 474 477 478 475 473 475 473 472 474 471 469 472 475 478 476 477 474 477
68 72 73 76 80 86 88 85 89 88 93 88 85 88 86 82 88 93 92 94 92 90 92 91 85 79 73 71 67 64
155 262 155 176 204 268 266 144 142 254 142 137 132 130 309 127 466 463 465 466 462 464 462 461 462 308 260 145 142 170
147 174 144 260 147 175 148 154 455 456 402 455 152 402 153 147 157 147 145 172 173 426 423 172 170 173 170 164 167 168
